#Wavenumber (cm^-1); Spectrum (K*cm*km*mol^-1); Integral (K*km*mol^-1)
502.87; 9.0141079; 101124.24566301
504.91; 8.6375458; 101141.83096084
506.94; 8.1929787; 101158.51115848
508.98; 7.6977003; 101174.18301195
511.01; 7.2108418; 101188.86366359
513.05; 6.8068141; 101202.72174972
515.09; 6.5442939; 101216.04536729
517.12; 6.4425676; 101229.16187893
519.16; 6.4736559; 101242.34168359
521.19; 6.5722571; 101255.72223193
523.23; 6.6587577; 101269.27888802
525.27; 6.6659656; 101282.85021863
527.30; 6.559468; 101296.2047294
529.34; 6.3446534; 101309.12189621
531.37; 6.0590264; 101321.45755111
533.41; 5.7541808; 101333.17256655
535.45; 5.4754344; 101344.32007849
537.48; 5.2473782; 101355.00328763
539.52; 5.0705354; 101365.32646001
541.55; 4.9293563; 101375.36220399
543.59; 4.8069588; 101385.14875719
545.62; 4.699307; 101394.7161407
547.66; 4.6219441; 101404.12602003
549.70; 4.6057172; 101413.50286267
551.73; 4.6827683; 101423.0365747
553.77; 4.8684265; 101432.94827089
555.80; 5.1467404; 101443.42659027
557.84; 5.4663589; 101454.55562528
559.88; 5.7496668; 101466.26145073
561.91; 5.9129848; 101478.2997774
563.95; 5.8912424; 101490.29383847
565.98; 5.6585665; 101501.81419149
568.02; 5.2374723; 101512.47723302
570.06; 4.6933371; 101522.03246221
572.09; 4.1160363; 101530.41235689
574.13; 3.5950476; 101537.7315636
576.16; 3.1963339; 101544.23902349
578.20; 2.9482363; 101550.24137824
580.24; 2.8399934; 101556.02335975
582.27; 2.8318507; 101561.78876336
584.31; 2.8718687; 101567.63564017
586.34; 2.9128562; 101573.56596402
588.38; 2.923798; 101579.51856446
590.41; 2.8930693; 101585.40860388
592.45; 2.8242641; 101591.15856192
594.49; 2.7281294; 101596.71279794
596.52; 2.6149183; 101602.03654592
598.56; 2.4903651; 101607.1067143
600.59; 2.356174; 101611.90368118
602.63; 2.2135852; 101616.41034954
604.67; 2.0672816; 101620.6191564
606.70; 1.9271078; 101624.54258148
608.74; 1.8065204; 101628.22050117
610.77; 1.7185621; 101631.71934523
612.81; 1.6714944; 101635.12236367
614.85; 1.6664162; 101638.51504326
616.88; 1.6981791; 101641.97238933
618.92; 1.7592446; 101645.55405953
620.95; 1.8446149; 101649.30953621
622.99; 1.9553507; 101653.29046146
625.03; 2.09875; 101657.56333542
627.06; 2.2847435; 101662.21487607
629.10; 2.5198046; 101667.34498071
631.13; 2.8009008; 101673.04737301
633.17; 3.1121939; 101679.38353117
635.21; 3.4262453; 101686.35907094
637.24; 3.7097906; 101693.91188441
639.28; 3.9323786; 101701.91786782
641.31; 4.0750194; 101710.21425554
643.35; 4.1358673; 101718.63452439
645.38; 4.1309105; 101727.04470163
647.42; 4.089281; 101735.37012491
649.46; 4.0445538; 101743.60448738
651.49; 4.0246736; 101751.79837543
653.53; 4.0435438; 101760.03068166
655.56; 4.0967442; 101768.37129932
657.60; 4.1625477; 101776.84588719
659.64; 4.2078214; 101785.4126485
661.67; 4.1970193; 101793.95741766
663.71; 4.1016993; 101802.30812354
665.74; 3.9080123; 101810.26449938
667.78; 3.6203421; 101817.63520343
669.82; 3.2604529; 101824.27320415
671.85; 2.8627397; 101830.10149517
673.89; 2.4671112; 101835.12432057
675.92; 2.1114332; 101839.42301633
677.96; 1.8252779; 101843.13912465
680.00; 1.626098; 101846.44971979
682.03; 1.5181428; 101849.54052753
684.07; 1.4937231; 101852.58161894
686.10; 1.53601; 101855.70880281
688.14; 1.6224832; 101859.01203866
690.17; 1.7283436; 101862.53079706
692.21; 1.8295182; 101866.2555382
694.25; 1.9051538; 101870.13426695
696.28; 1.9396166; 101874.08315888
698.32; 1.9239892; 101878.0002348
700.35; 1.8569557; 101881.78083638
702.39; 1.7448839; 101885.33326931
704.43; 1.6009347; 101888.59263414
706.46; 1.4431616; 101891.5307866
708.50; 1.2917639; 101894.1607065
710.53; 1.1658629; 101896.53430278
712.57; 1.0803052; 101898.73371101
714.61; 1.0430369; 101900.85724415
716.64; 1.0535305; 101903.00214141
718.68; 1.1026122; 101905.24696462
720.71; 1.173839; 101907.63679944
722.75; 1.2463377; 101910.17423534
724.79; 1.2987376; 101912.81835301
726.82; 1.3135529; 101915.49263341
728.86; 1.2811506; 101918.10094556
730.89; 1.2023729; 101920.54887306
732.93; 1.0890417; 101922.76606788
734.96; 0.96198516; 101924.72458664
737.00; 0.84682455; 101926.44864834
739.04; 0.76838633; 101928.01301658
741.07; 0.74506518; 101929.52990498
743.11; 0.78457095; 101931.12722371
745.14; 0.88218053; 101932.92326714
747.18; 1.0219475; 101935.00386401
749.22; 1.180499; 101937.40725811
751.25; 1.3323373; 101940.11978193
753.29; 1.4551929; 101943.08242915
755.32; 1.5340662; 101946.20565551
757.36; 1.563092; 101949.38797598
759.40; 1.5450809; 101952.53362728
761.43; 1.4892694; 101955.56565131
763.47; 1.4082348; 101958.4326959
765.50; 1.3149705; 101961.10986243
767.54; 1.2208329; 101963.59537292
769.58; 1.1345962; 101965.90531276
771.61; 1.062406; 101968.0682796
773.65; 1.008167; 101970.12082066
775.68; 0.97389907; 101972.10359511
777.72; 0.95980708; 101974.0576795
779.75; 0.96410019; 101976.02050428
781.79; 0.98281557; 101978.02143196
783.83; 1.0099615; 101980.07762645
785.86; 1.0381744; 101982.19125988
787.90; 1.0598587; 101984.34904082
789.93; 1.0685607; 101986.52453828
791.97; 1.0602083; 101988.68303091
794.01; 1.033885; 101990.78793154
796.04; 0.99195545; 101992.80746721
798.08; 0.93955795; 101994.7203261
800.11; 0.88363734; 101996.51933547
802.15; 0.83175992; 101998.21272688
804.19; 0.79093067; 101999.82299347
806.22; 0.76656582; 102001.38365533
808.26; 0.76171397; 102002.93443924
810.29; 0.7765991; 102004.51552799
812.33; 0.8085696; 102006.16170591
814.37; 0.85253702; 102007.89739771
816.40; 0.90193244; 102009.73365431
818.44; 0.95008246; 102011.66794021
820.47; 0.99174721; 102013.68705194
822.51; 1.0244411; 102015.7727257
824.55; 1.0491517; 102017.90870797
826.58; 1.070214; 102020.08757121
828.62; 1.0943584; 102022.31559052
830.65; 1.1292236; 102024.61459232
832.69; 1.1817988; 102027.02063263
834.72; 1.2572469; 102029.58027882
836.76; 1.3583524; 102032.34576702
838.80; 1.4855321; 102035.37018214
840.83; 1.6370862; 102038.70314833
842.87; 1.8092807; 102042.38668765
844.90; 1.9960051; 102046.45038186
846.94; 2.1880755; 102050.90511484
848.98; 2.372605; 102055.73553388
851.01; 2.5330604; 102060.89262634
853.05; 2.6505371; 102066.28889103
855.08; 2.7064079; 102071.79890398
857.12; 2.6859695; 102077.26730598
859.16; 2.582215; 102082.52447278
861.19; 2.3986355; 102087.40788767
863.23; 2.1500847; 102091.78527454
865.26; 1.8612248; 102095.57456751
867.30; 1.5627378; 102098.75616682
869.34; 1.2861105; 102101.37457677
871.37; 1.0581817; 102103.52894342
873.41; 0.89667437; 102105.35449505
875.44; 0.80763464; 102106.99876948
877.48; 0.78520204; 102108.59737306
879.51; 0.81359495; 102110.25378217
881.55; 0.87076397; 102112.02658246
883.59; 0.9329131; 102113.92591303
885.62; 0.97902248; 102115.9191183
887.66; 0.9945837; 102117.94400488
889.69; 0.97393485; 102119.92685219
891.73; 0.92082413; 102121.80157066
893.77; 0.84712704; 102123.52624821
895.80; 0.76997329; 102125.09384737
897.84; 0.7078637; 102126.53499677
899.87; 0.67659968; 102127.91249532
901.91; 0.68592384; 102129.30897706
903.95; 0.73762463; 102130.81071713
905.98; 0.8255008; 102132.49136552
908.02; 0.9371025; 102134.39922534
910.05; 1.0567093; 102136.55059433
912.09; 1.1687194; 102138.93000615
914.13; 1.2605979; 102141.49647474
916.16; 1.3247636; 102144.19357903
918.20; 1.3591758; 102146.96074376
920.23; 1.3667769; 102149.74338361
922.27; 1.3541944; 102152.5004066
924.30; 1.3301637; 102155.20850503
926.34; 1.3040008; 102157.86333819
928.38; 1.2842588; 102160.4779782
930.41; 1.2775434; 102163.07894639
932.45; 1.2874481; 102165.70007954
934.48; 1.3136716; 102168.37460158
936.52; 1.3515514; 102171.12624365
938.56; 1.3923337; 102173.96091498
940.59; 1.4244345; 102176.86094071
942.63; 1.4356828; 102179.78386699
944.66; 1.4161679; 102182.66706254
946.70; 1.3609766; 102185.43789341
948.74; 1.2719718; 102188.02751815
950.77; 1.1579234; 102190.38495033
952.81; 1.0327525; 102192.48754538
954.84; 0.91224579; 102194.34479907
956.88; 0.81014053; 102195.99417528
958.92; 0.73475119; 102197.4900653
960.95; 0.68718695; 102198.88911862
962.99; 0.66171554; 102200.23631436
965.02; 0.64811955; 102201.55582983
967.06; 0.6352243; 102202.84909168
969.09; 0.61439699; 102204.09995093
971.13; 0.58187212; 102205.28459234
973.17; 0.53922922; 102206.38241649
975.20; 0.4920559; 102207.38419984
977.24; 0.44749376; 102208.29525852
979.27; 0.41172629; 102209.13349772
981.31; 0.38838511; 102209.92421629
983.35; 0.37836899; 102210.69454289
985.38; 0.38090243; 102211.47002736
987.42; 0.39510314; 102212.27442324
989.45; 0.4211308; 102213.13180921
991.49; 0.46024511; 102214.06882853
993.53; 0.51369483; 102215.11466686
995.56; 0.58101665; 102216.29756662
997.60; 0.65872185; 102217.63866747
999.63; 0.74027656; 102219.14580665
1001.67; 0.81773152; 102220.81063746
1003.71; 0.88455359; 102222.61151223
1005.74; 0.93851697; 102224.52225177
1007.78; 0.98327273; 102226.52411018
1009.81; 1.0275949; 102228.61620462
1011.85; 1.0821941; 102230.81945832
1013.89; 1.1550477; 102233.17103578
1015.92; 1.2469614; 102235.70974159
1017.96; 1.3491932; 102238.45658242
1019.99; 1.4443321; 102241.39711791
1022.03; 1.510445; 102244.47225349
1024.06; 1.5272443; 102247.581591
1026.10; 1.4822057; 102250.5992338
1028.14; 1.3745182; 102253.39763418
1030.17; 1.2155245; 102255.87233711
1032.21; 1.025594; 102257.96035792
1034.24; 0.82865327; 102259.64742447
1036.28; 0.64636438; 102260.96336657
1038.32; 0.4939008; 102261.96890597
1040.35; 0.37847715; 102262.73945278
1042.39; 0.30060422; 102263.35145703
1044.42; 0.25698266; 102263.87465154
1046.46; 0.2434537; 102264.37030226
1048.50; 0.25666708; 102264.89285429
1050.53; 0.29394692; 102265.49130485
1052.57; 0.35182679; 102266.20759384
1054.60; 0.424417; 102267.07167021
1056.64; 0.5028449; 102268.09541903
1058.68; 0.57645135; 102269.26902422
1060.71; 0.63550659; 102270.56286078
1062.75; 0.67436918; 102271.93581822
1064.78; 0.69365443; 102273.34803877
1066.82; 0.70028592; 102274.77376047
1068.85; 0.70515274; 102276.20939058
1070.89; 0.71911577; 102277.67344824
1072.93; 0.74884844; 102279.19803903
1074.96; 0.79412918; 102280.8148175
1077.00; 0.84766135; 102282.54058285
1079.03; 0.89750628; 102284.36782818
1081.07; 0.93119439; 102286.26365961
1083.11; 0.93995013; 102288.17731694
1085.14; 0.92147762; 102290.05336586
1087.18; 0.88037912; 102291.84574176
1089.21; 0.82623674; 102293.52788846
1091.25; 0.77027434; 102295.09610054
1093.29; 0.72197476; 102296.56597884
1095.32; 0.68690126; 102297.96445052
1097.36; 0.66635528; 102299.32109236
1099.39; 0.65868647; 102300.66212117
1101.43; 0.66140968; 102302.00869419
1103.47; 0.67303875; 102303.378943
1105.50; 0.69378891; 102304.79143734
1107.54; 0.72488708; 102306.26724487
1109.57; 0.76689168; 102307.82857015
1111.61; 0.81787653; 102309.49369618
1113.64; 0.87240241; 102311.2698322
1115.68; 0.92188077; 102313.14670189
1117.72; 0.95637581; 102315.0938005
1119.75; 0.96732566; 102317.06319206
1121.79; 0.95030314; 102318.99792725
1123.82; 0.90689623; 102320.8442897
1125.86; 0.84505821; 102322.56475527
1127.90; 0.7777416; 102324.14817004
1129.93; 0.7201272; 102325.61428688
1131.97; 0.68614379; 102327.01121641
1134.00; 0.68515352; 102328.40612986
1136.04; 0.71963032; 102329.87123507
1138.08; 0.7844139; 102331.46823408
1140.11; 0.86774642; 102333.2348909
1142.15; 0.9538712; 102335.17689034
1144.18; 1.0265848; 102337.26692849
1146.22; 1.0728719; 102339.45120302
1148.26; 1.0856958; 102341.66158606
1150.29; 1.0652124; 102343.83026657
1152.33; 1.0180884; 102345.90300665
1154.36; 0.95515891; 102347.84762775
1156.40; 0.8881677; 102349.65586054
1158.43; 0.82663656; 102351.33882123
1160.47; 0.77586708; 102352.91841964
1162.51; 0.73667648; 102354.41822937
1164.54; 0.70683018; 102355.85727462
1166.58; 0.68348639; 102357.24879393
1168.61; 0.66556623; 102358.60382934
1170.65; 0.65498391; 102359.93732005
1172.69; 0.65613029; 102361.27314469
1174.72; 0.67373685; 102362.64481478
1176.76; 0.70996488; 102364.09024199
1178.79; 0.76196716; 102365.64154137
1180.83; 0.82107159; 102367.31317226
1182.87; 0.87415285; 102369.09287202
1184.90; 0.90691077; 102370.93926407
1186.94; 0.90799901; 102372.7878717
1188.97; 0.87256642; 102374.56434163
1191.01; 0.80394865; 102376.20111171
1193.05; 0.71291703; 102377.65254925
1195.08; 0.61478576; 102378.90419999
1197.12; 0.5254362; 102379.97394276
1199.15; 0.45763584; 102380.90564984
1201.19; 0.41879599; 102381.75828234
1203.22; 0.41064811; 102382.59432645
1205.26; 0.43052528; 102383.47083877
1207.30; 0.47336024; 102384.43455936
1209.33; 0.5333916; 102385.52049863
1211.37; 0.60492933; 102386.75208253
1213.40; 0.68216928; 102388.14092031
1215.44; 0.75863867; 102389.68544317
1217.48; 0.82709695; 102391.36934118
1219.51; 0.88048058; 102393.16192364
1221.55; 0.91387064; 102395.0224854
1223.58; 0.92677939; 102396.90932826
1225.62; 0.92464977; 102398.7918354
1227.66; 0.91858107; 102400.66198718
1229.69; 0.92293356; 102402.54100025
1231.73; 0.95137175; 102404.47791102
1233.76; 1.0126726; 102406.53962512
1235.80; 1.1078785; 102408.79517011
1237.84; 1.2299489; 102411.29923989
1239.87; 1.3661035; 102414.08050878
1241.91; 1.501942; 102417.13833311
1243.94; 1.6256694; 102420.44805573
1245.98; 1.7307055; 102423.9716227
1248.02; 1.8156693; 102427.66816875
1250.05; 1.8819195; 102431.4995945
1252.09; 1.9299718; 102435.42885059
1254.12; 1.9566848; 102439.41249188
1256.16; 1.9548077; 102443.39231168
1258.19; 1.9154214; 102447.29194436
1260.23; 1.8324191; 102451.02259148
1262.27; 1.7071059; 102454.49811168
1264.30; 1.550746; 102457.65529674
1266.34; 1.38363; 102460.47224811
1268.37; 1.2306808; 102462.97780807
1270.41; 1.1151507; 102465.2481586
1272.45; 1.0528818; 102467.39173511
1274.48; 1.0494599; 102469.52834482
1276.52; 1.1013887; 102471.77067707
1278.55; 1.2006455; 102474.21508768
1280.59; 1.3404096; 102476.94404586
1282.63; 1.5191165; 102480.03683595
1284.66; 1.7406233; 102483.58059471
1286.70; 2.0099643; 102487.6727085
1288.73; 2.3262512; 102492.40875517
1290.77; 2.675821; 102497.85649582
1292.81; 3.0290511; 102504.02338249
1294.84; 3.3431184; 102510.82968304
1296.88; 3.570765; 102518.09945251
1298.91; 3.672703; 102525.57675881
1300.95; 3.6296135; 102532.96633866
1302.98; 3.4494799; 102539.98918206
1305.02; 3.1673638; 102546.43766145
1307.06; 2.8372191; 102552.21399471
1309.09; 2.5180235; 102557.34047327
1311.13; 2.2584242; 102561.93843013
1313.16; 2.0845758; 102566.18244649
1315.20; 1.9947719; 102570.24362986
1317.24; 1.9622786; 102574.23865983
1319.27; 1.9452504; 102578.19902173
1321.31; 1.9005937; 102582.06846644
1323.34; 1.7977129; 102585.72845476
1325.38; 1.6283791; 102589.04369415
1327.42; 1.4102635; 102591.9148689
1329.45; 1.1834609; 102594.32429322
1331.49; 1.0010689; 102596.36238313
1333.52; 0.91617829; 102598.22764305
1335.56; 0.96829927; 102600.1990168
1337.60; 1.1722782; 102602.58567408
1339.63; 1.5122504; 102605.66448547
1341.67; 1.9422288; 102609.61869569
1343.70; 2.3936535; 102614.49196773
1345.74; 2.78877; 102620.16966282
1347.77; 3.0572882; 102626.39403767
1349.81; 3.1527358; 102632.81273576
1351.85; 3.0645987; 102639.0519943
1353.88; 2.8229824; 102644.79934285
1355.92; 2.4941313; 102649.87717901
1357.95; 2.1673654; 102654.28974797
1359.99; 1.9362562; 102658.23179841
1362.03; 1.8784808; 102662.05622326
1364.06; 2.0392371; 102666.20793393
1366.10; 2.422199; 102671.13932213
1368.13; 2.9900076; 102677.22671951
1370.17; 3.6738129; 102684.70628544
1372.21; 4.389159; 102693.6422344
1374.24; 5.0541213; 102703.93198908
1376.28; 5.6053754; 102715.34404956
1378.31; 6.0087332; 102727.57731182
1380.35; 6.2622807; 102740.32677485
1382.39; 6.3921539; 102753.34064851
1384.42; 6.4427598; 102766.45755151
1386.46; 6.4645593; 102779.61883631
1388.49; 6.503138; 102792.85866413
1390.53; 6.593014; 102806.28147156
1392.56; 6.7583569; 102820.04090297
1394.60; 7.020621; 102834.33428144
1396.64; 7.4104106; 102849.42123781
1398.67; 7.9785146; 102865.66480504
1400.71; 8.7999786; 102883.58080194
1402.74; 9.9662333; 102903.87119285
1404.78; 11.56393; 102927.41435617
1406.82; 13.644454; 102955.19328722
1408.85; 16.1933; 102988.16144804
1410.89; 19.111203; 103027.07020862
1412.92; 22.21726; 103072.30263326
1414.96; 25.277724; 103123.76589822
1417.00; 28.054515; 103180.88246907
1419.03; 30.358238; 103242.68922213
1421.07; 32.086021; 103308.01359104
1423.10; 33.227813; 103375.66255079
1425.14; 33.836253; 103444.55024146
1427.18; 33.971171; 103513.71261329
1429.21; 33.644031; 103582.20895666
1431.25; 32.792999; 103648.97267241
1433.28; 31.311489; 103712.72016241
1435.32; 29.132585; 103772.03159179
1437.36; 26.345148; 103825.66803965
1439.39; 23.295355; 103873.09537166
1441.43; 20.62063; 103915.07719506
1443.46; 19.177731; 103954.12140059
1445.50; 19.861263; 103994.55721801
1447.53; 23.352571; 104042.10103803
1449.57; 29.875483; 104102.92494392
1451.61; 39.048667; 104182.42465972
1453.64; 49.905242; 104284.02742495
1455.68; 61.10111; 104408.42401221
1457.71; 71.268855; 104553.52125109
1459.75; 79.416425; 104715.20623891
1461.79; 85.241568; 104888.75071436
1463.82; 89.247764; 105070.45145957
1465.86; 92.604122; 105258.98546058
1467.89; 96.773703; 105456.00836757
1469.93; 103.01491; 105665.73782958
1471.97; 111.91069; 105893.57833768
1474.00; 123.08127; 106144.16117181
1476.04; 135.18501; 106419.38617537
1478.07; 146.22439; 106717.08641806
1480.11; 154.07734; 107030.77458545
1482.15; 157.10046; 107350.617566
1484.18; 154.62413; 107665.41894327
1486.22; 147.18835; 107965.08172532
1488.25; 136.44438; 108242.87071272
1490.29; 124.74559; 108496.84197273
1492.32; 114.5425; 108730.04062741
1494.36; 107.75321; 108949.41685994
1496.40; 105.28628; 109163.77064555
1498.43; 106.84818; 109381.304313
1500.47; 111.08501; 109607.46380177
1502.50; 116.01414; 109843.65857815
1504.54; 119.62026; 110087.19510085
1506.58; 120.44597; 110332.41270574
1508.61; 118.01; 110572.67087902
1510.65; 112.93543; 110802.59767303
1512.68; 106.75288; 111019.93732925
1514.72; 101.43588; 111226.45202802
1516.76; 98.80318; 111427.60677554
1518.79; 99.962251; 111631.12129123
1520.83; 104.95796; 111844.80662997
1522.86; 112.7316; 112074.31843503
1524.90; 121.40417; 112321.48684913
1526.94; 128.80026; 112583.71306824
1528.97; 133.05563; 112854.60285028
1531.01; 133.12547; 113125.63481395
1533.04; 129.04149; 113388.35215878
1535.08; 121.84529; 113636.41864345
1537.11; 113.22765; 113866.9403618
1539.15; 104.99593; 114080.70300592
1541.19; 98.542311; 114281.32664646
1543.22; 94.47961; 114473.6789787
1545.26; 92.549603; 114662.10198376
1547.29; 91.814941; 114849.02927983
1549.33; 91.051703; 115034.40268886
1551.37; 89.198382; 115216.00289591
1553.40; 85.707974; 115390.49693389
1555.44; 80.693556; 115554.78205056
1557.47; 74.836025; 115707.14173973
1559.51; 69.106102; 115847.83580006
1561.55; 64.411835; 115978.97273678
1563.58; 61.298869; 116103.7719443
1565.62; 59.801659; 116225.52296061
1567.65; 59.483506; 116346.62624433
1569.69; 59.635561; 116468.03910009
1571.73; 59.553534; 116589.28495617
1573.76; 58.791612; 116708.97960524
1575.80; 57.309052; 116825.65588886
1577.83; 55.466986; 116938.5818854
1579.87; 53.884858; 117048.28680615
1581.90; 53.210195; 117156.61817168
1583.94; 53.879625; 117266.31243891
1585.98; 55.948159; 117380.21806109
1588.01; 59.040543; 117500.41951187
1590.05; 62.441156; 117627.54431657
1592.08; 65.298106; 117760.48562495
1594.12; 66.883544; 117896.65474887
1596.16; 66.833924; 118032.72285078
1598.19; 65.2961; 118165.66007587
1600.23; 62.928116; 118293.77628953
1602.26; 60.742747; 118417.44327973
1604.30; 59.827865; 118539.24765016
1606.34; 61.017807; 118663.47463851
1608.37; 64.611303; 118795.01767541
1610.41; 70.225528; 118937.99078869
1612.44; 76.841307; 119094.4330589
1614.48; 83.03998; 119263.49529084
1616.52; 87.373604; 119441.38040776
1618.55; 88.766107; 119622.10054161
1620.59; 86.828551; 119798.87597687
1622.62; 81.993011; 119965.80667156
1624.66; 75.420797; 120119.35690476
1626.70; 68.706062; 120259.23651775
1628.73; 63.455178; 120388.42578461
1630.77; 60.857499; 120512.32640081
1632.80; 61.364908; 120637.26005846
1634.84; 64.566794; 120768.71247829
1636.87; 69.294301; 120909.78969441
1638.91; 73.9283; 121060.30133285
